-0.04149612344271219,-0.07770418795468648,-0.1112801059329887,-0.14140534400434285,-0.1672613687954735,-0.188029646933115,-0.20074098872987223,-0.20767444789174,-0.2023780554764243,-0.18976301172358187,-0.18132088320704876,-0.18032580341992904,-0.1831505460414304,-0.19345443674031712,-0.21772154380685327,-0.2501418852581781,-0.2885969041281652,-0.3127035144548436,-0.3230395045017016,-0.3188023905694488,-0.3124146203230992,-0.30557745920514684,-0.29325130958404855,-0.28291531953719024,-0.28330051171284976,-0.28811541390859113,-0.3020465309282693,-0.3165554362114366,-0.3300050630115407,-0.3333112958526161,-0.3356866476025153,-0.3291062812683358,-0.30885159269825063,-0.2967501385129542,-0.2803794710474336,-0.2754361714598058,-0.26985088491274567,-0.26737923511893164,-0.2742163962368846,-0.28249802801356,-0.2896561826112287,-0.2843597901959127,-0.27469788645645893,-0.26840641425402356,-0.25383331027491335,-0.24744554002856312,-0.22478340036060745,-0.201671869821049,-0.193165542608573,-0.186167884750762,-0.18748395801759804,-0.18542959974741455,-0.18462711604812476,-0.16767866031911502,-0.143668348036352,-0.11875925401038351,-0.09038343040348128,-0.061847110056721326,-0.034594763628825194,-0.005833747846263413,0.02565571251388462,0.0669354740053734,0.10397812156461028,0.14602826740741753,0.17941158929789106,0.21802710490773589,0.26052664162214617,0.30764848444446824,0.3596494281584742,0.4091145233827233,0.4476979396445968,0.48069606935941084,0.4896517874434896,0.48612085916661263,0.4595746983940924,0.4220184612673102,0.37955102390087175,0.3393947395883894,0.301260714198118,0.26652921969283716,0.2422300132783294,0.2493239691800552,0.25057584375094744,0.25356108311230713,0.23622743520763845,0.1953328658918092,0.1426257365224273,0.07062689902210866,-0.010391855258231955,-0.08232649406260739,-0.13888554518858226,-0.16600949422459166,-0.18758025606151255,-0.20119037960147465,-0.20793124267551313,-0.22375622122551553,-0.2409614717382984,-0.2656458703284651,-0.29026607022268913,-0.3147257733770552,-0.3423954113285816,-0.35433636877402064,-0.36075623836834186,-0.35526724986519714,-0.3339853821600204,-0.31106644770829156,-0.2857400621586925,-0.26031737856517806,-0.25383331027491335,-0.2691767986053417,-0.31710112512695415,-0.3986334689748407,-0.5178825466893672,-0.6495219727209346,-0.7802626170092971,-0.865646882613777,-0.8834941200859913,-0.7899566200967231,-0.5571400492586454,-0.1711774892480213,0.3386243552370694,0.9436007664579806,1.5876420841603391,2.236722999494241,2.8474130946540983,3.4061664447958933,3.8666315914486216,4.223801036328712,4.482874873807567,4.628060224683154,4.676658637512171,4.648058118469467,4.536095592744497,4.3256843667906,3.9766681562952977,3.467347802029782,2.811975414493445,2.0665001572008026,1.3167556866279357,0.6398767359506209,0.14923820220458028,-0.13875714779669493,-0.2206104851242975,-0.16138718811667963,-0.06284218984384071,0.011146807230717625,0.01926794226753471,-0.047787595645155855,-0.16896263423797944,-0.3098787718333422,-0.4257253186628782,-0.5148973073280072,-0.5604462820997201,-0.572676133676903,-0.5660315686467803,-0.5471892513874459,-0.5312679747935278,-0.5276086491247645,-0.5348952011143199,-0.5479275363907937,-0.5605104807956639,-0.5615376599307552,-0.5545721014209165,-0.5412508720126985,-0.5280259406483956,-0.5200974016994081,-0.5191344212602607,-0.5227616475810515,-0.5278654439085378,-0.5305617891381531,-0.5399026993978905,-0.5516189614075278,-0.5552782870762917,-0.5576536388261903,-0.5625006403699039,-0.5612808651469824,-0.5522288490189892,-0.5363717711210142,-0.5240456214999162,-0.5115910744869318,-0.5138059294969727,-0.5215739717061024,-0.5320704584928188,-0.5518757561913012,-0.5729650278086478,-0.5837825080750795,-0.5792244006631119,-0.5703328812749763,-0.5628216338496194,-0.5464509663840994,-0.528828424347686,-0.5179788447332824,-0.5170158642941336,-0.5271592582531626,-0.5464188670361275,-0.5660315686467803,-0.5881159200512474,-0.6025927259864431,-0.6027211233783295,-0.5816318517609823,-0.5531918294581373,-0.5315889682732444,-0.5051391055446387,-0.4927808565755694,-0.48735606676836757,-0.4919462735283071,-0.5038872309737452,-0.5189739245204024,-0.5252974960708084,-0.5187492290846002,-0.5077391527303389,-0.48812645111968544,-0.4657211062355023,-0.4461405039728214,-0.41965854189624435,-0.399339654630216,-0.37619602474268565,-0.36303529207432655,-0.35953646314542126,-0.3580919924866985,-0.36069203967239866,-0.3596648605373077,-0.3526672026794967,-0.3287852877886195,-0.2937007004556516,-0.2534802174472257,-0.20834853419914365,-0.17441952339315286,-0.14353995064446592,-0.13034711862813433,-0.13050761536799235,-0.1371521803981157,-0.14122879759050957,-0.13792256474943387,-0.13480892799618777,-0.12755447535460396,-0.11628760421656947,-0.10582321677782476,-0.08466974646453472,-0.09291927889323821,-0.09320817302498234,-0.09799097587275271,-0.1051812298183927,-0.1103813241897936,-0.12254697707103328,-0.13143849645916883,-0.138339856273065,-0.13448793451647173,-0.12803596557417832,-0.12264327511494809,-0.10023793023076523,-0.07975854622487855,-0.08024003644445259,-0.0895488473562196,-0.11015662875399239,-0.14726347500916145,-0.18106408842326552,-0.20334103591556227,-0.20587688440531984,-0.1804542008118063,0
-1.2614919729366325,-1.258418193344624,-1.2340895548717061,-1.19293142813616,-1.1393691837562672,-1.0778281923503228,-1.0198187774968857,-0.9599781748014022,-0.8981319854217705,-0.8398827721604462,-0.7768811904519043,-0.7163211925327587,-0.658311777679322,-0.5899692314314742,-0.523348873749361,-0.46082688885659256,-0.41186441393708184,-0.36416633062279463,-0.3181686360189799,-0.27914689509915597,-0.24612011437651127,-0.224124060416678,-0.20258580341735596,-0.17638237739186524,-0.15340532994522033,-0.12600291188029347,-0.09892749164430406,-0.06507231642168579,-0.02908075538334571,0.0030304314182745384,0.026051078575444586,0.03860779520662857,0.039675988114489275,0.03483642024622086,0.025375283062308303,0.013646960931098706,0.004207623602448614,0.002768833155125136,0.012251770194300163,0.02027411693088966,0.027489869022767857,0.03171904094368739,0.030345650062151727,0.027468069167505597,0.022279703615037293,0.01611034457575795,0.013472562088998758,0.015390949352096315,0.028165664535904352,0.033375829943635124,0.04115837827233727,0.047305937456354356,0.05194930662726097,0.054238291429820264,0.05218910503514811,0.047218738035304485,0.038978392746090516,0.026748673943843962,0.021843706509787737,0.019140524457241348,0.022519502022924437,0.03287443327259837,0.04870112819315248,0.06516001891631877,0.07954792338954982,0.08994645434974868,0.0933036320601691,0.08543388431041708,0.07483915465285622,0.05888166060072689,0.04379616075909646,0.036188011272493846,0.030258450641101855,0.028645261351679052,0.032765433996286036,0.04475535439064545,0.05705047275867962,0.06583581442945506,0.07340036420553274,0.07340036420553295,0.06494202036369409,0.048810127469465024,0.029277457154290816,0.009613987707541594,-0.00473031705516514,-0.01009308144973277,-0.0042943199499157906,0.009810186404903387,0.03679840721984315,0.06716560560046578,0.08586988141566665,0.09818679963896286,0.10354956403353112,0.10003978733627301,0.09282403524439503,0.08471448908675545,0.08425669212624363,0.09227903886283313,0.11331589919111801,0.14163391117706828,0.16884013054463273,0.19305976974123848,0.20480989172771055,0.2068590781223829,0.20317490258302529,0.1930379698859762,0.18501562314938694,0.18257403935998995,0.18898319680715644,0.20570368579347173,0.2276997397533056,0.24755940789741723,0.2586773340812779,0.25693334566028014,0.2374006753451055,0.19308156959650116,0.1403477197165825,0.09561441671799129,0.0968788083232146,0.1609703827948807,0.3136347691979683,0.5776092165712351,0.9575152942303244,1.4529606047805133,2.040117906419919,2.6845216279785755,3.3403266738395043,3.9593117641621185,4.497659189868851,4.9033326964481825,5.153747633848194,5.2126944424779165,5.036791410365035,4.604631079641801,3.924911592557941,3.069637871045399,2.140724238456228,1.2547781205893884,0.5199049996914751,0.006431208839222169,-0.25608264823145993,-0.30641851403250675,-0.23029341945595694,-0.11824216340685381,-0.03165313830431729,0.007412202326031338,0.00830599639179292,-0.015390446278513414,-0.04682583756699696,-0.0777380323291817,-0.10673183982826867,-0.12951268857755138,-0.15301293255049592,-0.17729797131288888,-0.1989888272990478,-0.21841249833791027,-0.22848403146917193,-0.23022801989016933,-0.2221838732983178,-0.20629177881197605,-0.19242707086504443,-0.18161434265485826,-0.1807859481548845,-0.18802350010202518,-0.19859642990432358,-0.21047735102237045,-0.2216388769167563,-0.22693624174553653,-0.2226416702588298,-0.21019395290395856,-0.19443265754919167,-0.17494358694454196,-0.1594002901423995,-0.14383519348499524,-0.14115381128771132,-0.14625497741912954,-0.15892069332662564,-0.17588098072082828,-0.19321186565449305,-0.21108774696971955,-0.2284840314691715,-0.2367243767583859,-0.23825036662675902,-0.23003182119280732,-0.22562825042978807,-0.21832529891686,-0.21418332641699034,-0.21649411107481273,-0.22281606910092955,-0.23602678138998692,-0.2517008773237038,-0.266917176296909,-0.2765527123229217,-0.28084728380962803,-0.2832234680332376,-0.2796482917701921,-0.2784928994412815,-0.2792558943754681,-0.2861228487831464,-0.29654317959860793,-0.31071308551921434,-0.33408253036058366,-0.3562965828730424,-0.3766358478329277,-0.3953619235033912,-0.40584765388463995,-0.4162679847001011,-0.42337473751566673,-0.4345580632653149,-0.44458599668605114,-0.4594316981197947,-0.47937856568495596,-0.501309220079002,-0.5255724589861327,-0.5530620764721098,-0.5794835010502246,-0.6076053143388135,-0.6381905112720606,-0.6747052688367001,-0.7115470242302768,-0.7462959935186567,-0.7806525654123113,-0.812000757279745,-0.8385747808446977,-0.8623802227913168,-0.8828938865933023,-0.8984807831059696,-0.9123454910529014,-0.92503300681566,-0.9320307603549131,-0.9289133810523801,-0.9249458073946102,-0.9136752822239121,-0.9005081696453797,-0.8887362478036456,-0.8793405101855202,-0.8697921735805574,-0.8621404243834302,-0.851240496752194,-0.8328414189106681,-0.7992478419512,-0.7553211335973196,-0.7009086948621907,-0.637928913008911,-0.5754723276819301,-0.5147815306312098,-0.46165528335656675,-0.41794657355531173,-0.378794033503913,-0.33833350213676583,-0.29870136526959246,-0.2584152327445454,-0.21405252728541593,-0.1641526585896187,-0.11708677107794283,-0.07124167546095808,-0.03010534858067462,0.004185823747192792,0.029495455706921723,0.04368716148279035,0
-0.2684426173128684,-0.2980261363063578,-0.3136422525363594,-0.31788846740766447,-0.31336228232506436,-0.3026611986933594,-0.28869379592987165,-0.278925946335806,-0.2650829747773381,-0.24707155785070226,-0.23994787136331128,-0.24402299332771404,-0.24940464294482595,-0.26337204570831463,-0.28160121724373505,-0.2862984952332377,-0.30157242564943487,-0.3032833547184587,-0.289564814365011,-0.26054123579411065,-0.23329080189474496,-0.21590154099320835,-0.19785901626531752,-0.19443715812726897,-0.2095866573384468,-0.22747364306006249,-0.2587680911225766,-0.27195779885468957,-0.2779304966956467,-0.2648652201685536,-0.24632497062058278,-0.21966558494506166,-0.19319284607706982,-0.17328385327387966,-0.17057747456469652,-0.17287945185756523,-0.18868221489509704,-0.20059650277575652,-0.2053871041690235,-0.20124976660211077,-0.18784230426121293,-0.1579788150564281,-0.10587324795432917,-0.0449641730970698,0.01634930317650429,0.07747613264254763,0.11931612533050184,0.14712649965245805,0.15956962015445159,0.15502788117122382,0.14177595783660055,0.14277140747676018,0.15804533789295733,0.1814384044367054,0.2109908156289404,0.24567601402824776,0.2662071628565372,0.2646206649925333,0.25186646647799,0.22383833754724894,0.18840655191782207,0.1477797634788126,0.10174021762143598,0.06798825325977825,0.05059899235824196,0.04599503777250424,0.04524845054238445,0.04359973707587059,0.046212792381289086,0.03949350731021252,0.011403162776961507,-0.04910151066398314,-0.12596888756504862,-0.21027102896605576,-0.27979696477094596,-0.34415900556750795,-0.39781996273235554,-0.4224884491275586,-0.4309186632676593,-0.43449606041198274,-0.43449606041198247,-0.4405309738554495,-0.4543117298114074,-0.4680613779661103,-0.475402819062287,-0.4996357962399195,-0.5247397918526917,-0.5310857833087088,-0.5365607563295857,-0.5347565038567968,-0.5195136812418547,-0.5055151706771119,-0.48647719630906117,-0.4628041595540183,-0.4483390319704503,-0.4578269113532211,-0.47359856658949767,-0.4877215083592606,-0.5015333721164735,-0.5124211025557184,-0.5203224840744841,-0.5185182316016951,-0.4945030090328471,-0.4673147907359914,-0.438882260388935,-0.4212752448786142,-0.40939206479921025,-0.4034193669582532,-0.40130403647291435,-0.4074633811214013,-0.4164224278828366,-0.42040422644347475,-0.41104077826572444,-0.396140141464587,-0.37159608627440444,-0.3376885829064715,-0.2981816753126419,-0.2633409379070593,-0.23151765722321058,-0.19176188721934082,-0.1222048436131959,0.02754811162829837,0.2814188776702244,0.6524105154371664,1.1425139242094426,1.753595572062353,2.4564763414187216,3.226612177088367,3.9964058269442067,4.688150003451291,5.206126002148034,5.46105443343263,5.354292459525524,4.8342322381447,3.9108904812942584,2.676688466502759,1.2806014539803217,-0.06499759710527662,-1.196108358537759,-1.9712525502094564,-2.346194878735782,-2.3652328531038336,-2.1200411636120484,-1.746560901744709,-1.366548001613821,-1.0693129606224467,-0.8849059147828992,-0.7820324160326668,-0.7288380758866436,-0.674803825106736,-0.605371212705611,-0.5250819776664968,-0.4384156433701109,-0.3752668068224925,-0.3428835857160539,-0.35112715304862496,-0.38985636561108045,-0.43374947318186324,-0.48010009705178935,-0.5095591848402594,-0.5188293096142449,-0.5100569096603395,-0.4762738374974264,-0.4312297412802094,-0.38288821812996376,-0.34568328782900254,-0.33731528929141147,-0.3443767601762931,-0.3668988082849018,-0.40055744924279485,-0.44258408873827837,-0.4689323964012503,-0.47748704174637085,-0.4694612290225852,-0.44563265326126683,-0.41648464348534686,-0.3920961273014389,-0.3732759075421736,-0.3649390168058375,-0.36926300118028044,-0.37719549050030177,-0.37725770610281173,-0.38708777129938643,-0.39231388191022404,-0.3979132861361211,-0.3953935542344672,-0.3912251088662998,-0.3907895996487295,-0.3880521131382911,-0.37109836145432445,-0.35632215585820726,-0.34431454457378347,-0.34720757009049674,-0.35066053602979996,-0.36229485369916437,-0.36696102388741175,-0.3803995940295646,-0.3849724408140473,-0.3715338706718945,-0.3483274509356763,-0.3250899233982028,-0.2970617944674618,-0.28471199736923347,-0.2747263931663836,-0.2734198655136742,-0.28225448107008927,-0.3046520979736783,-0.31594422982923764,-0.3134244979275835,-0.30154131784817956,-0.2707757024070004,-0.22738031965629696,-0.19257069005197056,-0.15552129875728393,-0.12624885777634343,-0.1170098408036136,-0.11865855427012775,-0.11862744646887248,-0.12167601099186097,-0.11293471883921051,-0.09028823952558164,-0.04866600144641314,-0.0072926257772841915,0.04602614557375892,0.10789956226992263,0.1641424669389343,0.2121729120766299,0.25202200548426457,0.27585058124558237,0.29003573861785586,0.3032565541512238,0.32552973984979294,0.34907834539981564,0.3897051338388251,0.44022420307691923,0.4995467800701741,0.5591182194734691,0.620493911349553,0.6703597167612927,0.7021829974451417,0.7270070228466191,0.7428097858841511,0.7599501843756474,0.7772772296746735,0.7939510111473452,0.8229123741157356,0.8560732902535488,0.8960157070649485,0.9377001607466272,0.9666304159137626,0.9727586527609946,0.9652927804597987,0.9463170216942584,0.9080544261506277,0.8527758633205208,0.7925200522896204,0.7329330589856982,0.6796920571377926,0.6384742204749382,0.61495672272617,0
-0.032430924609046514,-0.026925908607825913,-0.025928355372705335,-0.027794149386541823,-0.030879175132192297,-0.03353931709251731,-0.030879175132195933,-0.026531813502596587,-0.017492257026319256,-0.006445278607762253,0.00724952629907749,0.02019308741156723,0.027976465739915125,0.033986416094715276,0.03883871207789417,0.04082150307609656,0.04635115002139444,0.052151737351539475,0.059060717165152016,0.07131461184348437,0.08742324926987503,0.10721421283578482,0.1272391703704263,0.14595868786898428,0.1648383065040429,0.17877942085165321,0.19084858344940772,0.1977821942070973,0.2005531754157654,0.20805329788722693,0.21780715174173892,0.2311078615433458,0.24900224241532265,0.26958139619169774,0.29538231011240756,0.31780878469456164,0.33783374222920315,0.3544226830650962,0.3675509762581639,0.377711240689947,0.3850020001367538,0.3882040228667703,0.39390608642060737,0.4008027507621813,0.4143374545325202,0.4296825326925223,0.44582811653502863,0.46060668298125856,0.47122261987846703,0.4766660585194951,0.4754221958436041,0.4672816688261391,0.4497198056992025,0.4253351710629231,0.40732995094259966,0.38790845153784576,0.3684253747728993,0.35044478559665276,0.33554306443003756,0.3210108074245781,0.30836281764101303,0.2927591145682018,0.2702464316817782,0.2421425244898643,0.21619382490469208,0.1866613229563093,0.158902248981474,0.135933893629625,0.117731625956685,0.10387671991334446,0.09372877095359973,0.08792818362345459,0.0825955842307733,0.07117914165106062,0.0614499187406259,0.050476833154300266,0.038124414699659735,0.02737300761002739,0.01807482622094097,0.009626412402512847,0.0035795156315972464,0.006892377609960331,0.009256948241357166,0.01178162000925456,0.018247242829480287,0.020771914597378035,0.021129063286495192,0.01963889116983359,0.017508314507168922,0.01029144789259331,0.006387443256380782,0.004182973761484743,0.0046879081150642925,0.004897271139719297,0.00803771650954318,0.01391219667191958,0.01834576660578835,0.024084776575741117,0.03040261373150457,0.030562714868005367,0.030636607700236504,0.028592239341841377,0.030180935234811045,0.027015858920910234,0.02897401897503558,0.031942047736320034,0.0316464764073956,0.03245929756193822,0.03733622448919404,0.04472550771230897,0.06511992940810638,0.10516984447738946,0.16614374654012654,0.24908845071959218,0.35689809294483954,0.48649380520623775,0.6386884086583292,0.8064374532950778,0.9898148319487146,1.1868747000371525,1.399858473471403,1.61922166142161,1.838547902955701,2.053206580587191,2.2544906555848434,2.4348507435890414,2.5907646195967673,2.715323303794409,2.807455350114614,2.8729120839993745,2.9053879837649643,2.900646527030133,2.864845449814141,2.8022951673304726,2.72208449794356,2.6376988835355863,2.564815920011596,2.509815021887543,2.4762060986944086,2.458545711791164,2.4410084796083042,2.407448818303324,2.3443320241058836,2.2371504709546004,2.0799557858548683,1.8632157934488673,1.5825708166349606,1.2468510488647702,0.8871530570355716,0.5364207288504191,0.23006104642007208,-0.0018269765933147028,-0.14867666518068653,-0.21562357118210843,-0.22100543246294405,-0.20441649162705122,-0.19274142413452944,-0.2043672297388969,-0.236510611759447,-0.2837281315551515,-0.33471418579464524,-0.3754045054099316,-0.4076094647906743,-0.42815167215093397,-0.439174019625414,-0.4446174582664418,-0.44860767120692385,-0.45389100871145144,-0.4635956006778092,-0.4750613051456756,-0.488066443618358,-0.5046430689822127,-0.5245818182125845,-0.5449146625481892,-0.5589050387839537,-0.5719471236727517,-0.5848783693132027,-0.5908021113637334,-0.5961962881166073,-0.5970706866313426,-0.6030929524581812,-0.6151497995838974,-0.6316525321155204,-0.6542760542502911,-0.6748798389707434,-0.7002620268421431,-0.7201145677682453,-0.7327871884958874,-0.7396469064213461,-0.7451765533666437,-0.7543146336192295,-0.7624797915807715,-0.7739208651045609,-0.7855959325970826,-0.7961133457179831,-0.8098204660968613,-0.8188107606849846,-0.8259906808834446,-0.8266310854294481,-0.832493250119786,-0.8403997831685188,-0.8482447388570593,-0.8603015859827753,-0.8767304256821672,-0.9042801366323479,-0.9403028923450333,-0.9823848603006731,-1.0273363332412893,-1.0717828718283258,-1.1187787131273372,-1.1624740079200238,-1.20199435769165,-1.2372905005540626,-1.2705915369462344,-1.3038186805061749,-1.3366763599049596,-1.3696941404402445,-1.3992512733327047,-1.4275645435492734,-1.4492520898091161,-1.4683287559967908,-1.482627019033519,-1.4910508019078703,-1.4932799023468428,-1.4945483959668113,-1.4928365453534556,-1.4868758568868097,-1.4762229735734858,-1.4644986441928103,-1.4480205426052637,-1.4320966372594506,-1.4132047031523538,-1.3947561260386432,-1.3701005510175162,-1.3433882921659548,-1.307624161366079,-1.2651357828331675,-1.2140142584012508,-1.158890205556813,-1.1051947474688442,-1.0474105526640851,-0.9889120604810916,-0.9337633766925767,-0.8813240967525372,-0.8309291851708933,-0.7800293392356695,-0.7275161664633994,-0.6719487566255746,-0.6157902041299006,-0.5647302570581759,-0.5102342932877031,-0.4594822330169417,-0.4164889201304512,-0.3826460029685846,-0.35491155993782625,-0.335416167700836,-0.3220046186508825,-0.31409808560214947,-0.31111774136882675,-0.3124847587651031,2
0.03426120539012262,0.06355418933614518,0.08885447236644808,0.11139741986337036,0.13241839720925094,0.15315276978642914,0.17780077989485718,0.20011642016142914,0.2251202154999708,0.2479497677655958,0.2752661670998761,0.2968504710601034,0.31290033810745194,0.3243052313172057,0.33586825129589887,0.34938809004021704,0.3592314814066943,0.36820517554400495,0.3782659912177739,0.38917673827459204,0.4063137268583988,0.4231146960582095,0.4358043692655958,0.4482173206273382,0.4503125003157853,0.44669535047629666,0.43780071972345574,0.4282538160487399,0.417639556683683,0.40854726746966785,0.39670752564533074,0.3815471216732663,0.3617417438636072,0.3398411863655012,0.3058834627357664,0.26611458034750884,0.22484349365432701,0.18394795803737626,0.14935772733188382,0.11988685077080426,0.09160192497677017,0.06602492010082318,0.039775876456883796,0.01265713558377774,-0.011635089294536678,-0.032646183717358654,-0.045691642154858644,-0.0547641655227564,-0.06000211474387384,-0.06458779104311625,-0.07063613995504808,-0.07636823532910111,-0.07937264393894959,-0.07875990270930944,-0.08091437993610869,-0.0857372463887602,-0.09237857068421475,-0.09678635436840034,-0.09714213959851402,-0.09953380697872236,-0.10273587404974505,-0.10212313282010492,-0.09783394421262383,-0.08980901068894963,-0.08470942239065418,-0.08225845747209355,-0.085539587927586,-0.0886428257680216,-0.09344592637455566,-0.10131273312929051,-0.10350674204832462,-0.09988959220883598,-0.0995733386709572,-0.0987629389801428,-0.09650963252275646,-0.0937226482201996,-0.0897694789967148,-0.08530239777417688,-0.08328628147019962,-0.08465012485230188,-0.07759371778838141,-0.07603221594510495,-0.07362078271877917,-0.06946995503412008,-0.06636671719368449,-0.06415294242853295,-0.06442966427417691,-0.05638496490438522,-0.04913089937929052,-0.040928073240559464,-0.026835024958836013,-0.01566732190249129,-0.0034915606941579654,0.01643241219220566,0.03511113677317156,0.059166171498076854,0.08377464991427004,0.11051783971114505,0.1333276261306526,0.15714547070214882,0.17886813558519807,0.19695388478264128,0.2043265453844405,0.21262820075375868,0.22138447058377764,0.2437594083887019,0.26975149603311477,0.3023849079729821,0.3468778275833041,0.3974981594900276,0.4585153264545162,0.5415318801476979,0.6406378325804633,0.7520183754521487,0.8668381755482663,0.9859076325596298,1.1008064960402169,1.2121079755274329,1.324121025474876,1.4364503289601978,1.558326536120236,1.6927342897187205,1.8261932827035692,1.9579919446145542,2.0885453582201414,2.2360381019483606,2.390073340741448,2.5357476266268644,2.662110680855558,2.7583901172935317,2.8175690605690997,2.8317016405430584,2.79078633907999,2.7095882432296112,2.6068058434190053,2.5131157328224143,2.423378791449308,2.3374961900691003,2.248035970541638,2.1599593602423957,2.0772195283948576,2.005291614373551,1.9418827800288536,1.8885742930501608,1.842796593442206,1.8002209609052744,1.746952005618816,1.6807364211254447,1.5851487893015812,1.4447717501756343,1.242745037009441,0.9861645885591571,0.6955275872485511,0.3908963668868086,0.10496363695214954,-0.14877052965722545,-0.3582687326558052,-0.5108808305284377,-0.6094728709621501,-0.6679995413158433,-0.7087171843177373,-0.7407576208740823,-0.7728771208148966,-0.806340698291696,-0.8323130200899913,-0.8528102025137602,-0.8743549747817526,-0.8942591818219986,-0.9101904537926425,-0.9231766146917904,-0.9333560254422638,-0.941835573426639,-0.9512638820246504,-0.9595260057017335,-0.9715831718333624,-0.9856564542689685,-1.004730495772283,-1.02309296681537,-1.0406055064754078,-1.063355995356563,-1.0884388540795746,-1.112889205726828,-1.1361931382992716,-1.154298653342832,-1.1722065099252181,-1.1859042412845935,-1.1997403335667904,-1.213457830772283,-1.229448400281279,-1.2461110085582676,-1.2622992365284382,-1.2749296121974723,-1.2939048244701994,-1.3099151598253131,-1.327348636100881,-1.3409475382296694,-1.3589542240426424,-1.3775934169313737,-1.3931096061335517,-1.4064713181089306,-1.4120255208679267,-1.4124010719441582,-1.4133695984039119,-1.4148718027088358,-1.4190028645473778,-1.4230548630014497,-1.4284114072992717,-1.4258023156117716,-1.4185680159327942,-1.4048307528811845,-1.38575671137787,-1.366405948028912,-1.345118131760446,-1.323039681647283,-1.2922049617041012,-1.257258945768495,-1.2207316621434952,-1.185785646207889,-1.147202714586677,-1.1013261857481351,-1.0525440775303323,-0.999334419782226,-0.9439307531150861,-0.8872423064503133,-0.8236951111827945,-0.7606222962220938,-0.7011666311008816,-0.6483918219673588,-0.599906201441317,-0.5577654175189687,-0.5185499788219989,-0.4773974872055218,-0.4378855608167907,-0.40001419965580587,-0.36704476833194216,-0.33939234961366566,-0.31557450504216944,-0.2975678192291959,-0.2879023204777755,-0.27916581649387395,-0.27562773003885493,-0.272228004506658,-0.27341395527370344,-0.2690061715895179,-0.2687294497438739,-0.26590293374908225,-0.26418330513686633,-0.2707060343556163,-0.2764381297296693,-0.27485686204027543,-0.27206987773771857,-0.26643661159425264,-0.2680376451297641,-0.2669900552855405,-0.26697028943942325,-0.2641833051368648,-0.2631455982157,-0.26501347067379644,-0.27094322450902364,-0.2820911617192508,2
-0.147844165352224,-0.1918740393430833,-0.2014698498037191,-0.1895876729517406,-0.169183585004757,-0.1532136621803789,-0.17479557523805436,-0.23577689297886953,-0.3201876925784452,-0.4071273519745062,-0.4745289712990922,-0.5145172885375782,-0.5354179105998534,-0.5372654794009386,-0.516491877693738,-0.48395157218462653,-0.4533512139166545,-0.4324736864643929,-0.415360580444342,-0.398316758254332,-0.38249695039504067,-0.3786863397428027,-0.39254310575094087,-0.41254303802268716,-0.4120465039073955,-0.39425210689194473,-0.3705801316280416,-0.35801666378066305,-0.3473469539543965,-0.3312500107749425,-0.30944869892213833,-0.29357115453781313,-0.29497992574864046,-0.31802834654217715,-0.3530859645427671,-0.3939172350467479,-0.4397484886186653,-0.4850832080752911,-0.5168382968439413,-0.5257874582241974,-0.5069768983681497,-0.47435576172399074,-0.453004794766451,-0.45454058633235306,-0.45993317777052,-0.4458454656622462,-0.4123467338375718,-0.37051084779800103,-0.3427973157817244,-0.32607681813190426,-0.3043332428041339,-0.27987605079976985,-0.26913705714346264,-0.2741254929063924,-0.27037261877918817,-0.2460078052148785,-0.22515337237263028,-0.21749750915313384,-0.21992244320455814,-0.21910258454907655,-0.21178159317477682,-0.21295941828546866,-0.2230055736413688,-0.23030347040565496,-0.2145644936814113,-0.18149301214198793,-0.1553961028266608,-0.14494579179552314,-0.1423707427790108,-0.14647003605641834,-0.16100809305995673,-0.1888601927363147,-0.21649289361754376,-0.22498016279752847,-0.20707029273200978,-0.16177021519040435,-0.10261337164066073,-0.05738257792909598,-0.033156332024867494,-0.025673678380472794,-0.015789185294667427,0.008021357629316852,0.04317135406996098,0.08500724010953181,0.11799789051390774,0.139164100591339,0.14332113039378053,0.12336738734206143,0.0926977452440487,0.08019201392170387,0.10508800351632562,0.14839039729175774,0.17190071028556572,0.15295158276943666,0.08837905317151229,-0.012324993792632683,-0.1248534810837224,-0.21487627091659411,-0.24383691187360323,-0.20319039824973106,-0.12299436497763079,-0.04399925142623578,0.006797343298597889,0.020792676966817615,0.01564257893379291,0.007039836703740403,0.01142781260631756,0.02721297855058842,0.04619674798173787,0.051878022045074586,0.04292886066481863,0.03447623339985425,0.026589424080222225,-0.000258060060545708,-0.042186324540170794,-0.07314464926335312,-0.06847953804061326,-0.03538496189117633,-0.001031729496000176,0.022351563142733167,0.044811071380924,0.07424515184321108,0.10617345018696309,0.1311964601366595,0.15636958505144408,0.2009421823776222,0.27105741837880193,0.35036430916538014,0.41087218740091724,0.43735015778146824,0.4152139740834675,0.34277772977592463,0.22357490019091505,0.05988030441477476,-0.14449544690025823,-0.38952925914417036,-0.659840122047928,-0.9400932145625251,-1.214514918048697,-1.4779435871684128,-1.722284561111918,-1.9352746019620104,-2.104523451446413,-2.2249502953621416,-2.303425780188231,-2.3543378479631336,-2.382663387144769,-2.4015432308308573,-2.4169011464898777,-2.434164367475017,-2.453055758466112,-2.4696607830658643,-2.4677670250447523,-2.4331828465494403,-2.3743377802348804,-2.3017860628772695,-2.2199734069042196,-2.1255741884737778,-2.013334383807857,-1.8869722251186427,-1.765009589637012,-1.66626858452402,-1.5870771667875094,-1.5098141489871317,-1.4344910784278933,-1.3731748888418815,-1.3220780641868715,-1.2655540061786739,-1.1941916612367618,-1.1005892068517875,-0.9928066619184851,-0.87505879276433,-0.7340315567165028,-0.56309680070111,-0.37570713505105324,-0.20016500433795464,-0.049345653644376014,0.07697031582481136,0.17563048980275606,0.2528473183831067,0.3044984136784423,0.33437129173098723,0.3451795692173351,0.3477430709288407,0.3579393412498291,0.37883996331210446,0.40825094916437793,0.44992517293385376,0.5065993459071394,0.5791395159597432,0.6520145578575439,0.7095316840963246,0.7331574701402005,0.7429726793959652,0.7576262094495714,0.7731688819887,0.7857785390561057,0.8005590894647866,0.8233996587682012,0.8515288937647221,0.8838844423937249,0.9186302831591315,0.9531336305193959,1.0056276790802265,1.0720246828692224,1.1404886542544324,1.2068972053484353,1.2729477899872277,1.3362501160344065,1.3890097526103928,1.430095063824523,1.4676468997065775,1.5206605769927133,1.603397017366306,1.6953366598303037,1.7668722143473174,1.806756605840742,1.8179343970873072,1.8127150152242417,1.793731245793092,1.773419536286163,1.7672301808025281,1.7888005465551966,1.8308442840848895,1.8645162254846652,1.870463087563158,1.8533846234581277,1.8194701886532092,1.7768028966531502,1.7381887087104715,1.7131656987607748,1.7030156176598135,1.6937200371293542,1.6629695638962938,1.6063531274480425,1.5268845743913693,1.4387209006645894,1.3510768556631148,1.2711579577111771,1.2171050229744307,1.1968048607725081,1.2213197893019059,1.2700956056505528,1.290730639697672,1.2443913047054567,1.1255810834906774,0.975754801027682,0.8338730644093527,0.7179265748362555,0.6388737247598266,0.606333419250715,0.6159292297113507,0.635721310492975,0.6230423695955284,0.5699825030893656,0.47185350514173086,0.3814207859811177,0.3183551796865781,0.30232752033716376,0.3530086420119284,2
0.3679635769617879,0.12501336708171495,-0.000734243547659307,-0.035302698670483364,-0.0047154420309054226,0.06500408262692321,0.1094769827568487,0.16132966544108496,0.19308215090502748,0.22493173877100028,0.22337810033851385,0.2091040472400443,0.2052199511588281,0.19444158453345314,0.2360985150044969,0.25318853776184813,0.2646466212014359,0.2633842899750407,0.2590146818836725,0.28571784244203385,0.32630664649074315,0.3561170839140774,0.39185076786126644,0.4034059537028847,0.43418741514652315,0.42816706622063805,0.4260308133759692,0.4191365428318104,0.41748580199729346,0.41748580199729346,0.4335076983323103,0.46390075016782706,0.5083736502977525,0.5224534985921613,0.5222592937881004,0.514685306429729,0.5018677893617155,0.4869140194490332,0.4847777666043642,0.4576861964378813,0.4294293974470334,0.3987450384054254,0.37854773878310116,0.3726244922592464,0.39049133423284094,0.4221467172947529,0.43486713196073595,0.438459920835861,0.4404019688764691,0.4162234707708983,0.4241858677373915,0.4230206389130266,0.4627355213434622,0.5111896199566343,0.580423632604313,0.6584939638367587,0.7468571496844272,0.8212375896397175,0.8526987678975687,0.8186158247848967,0.7735603102427888,0.6481040068195056,0.5020619941657766,0.306497756476541,0.12627569830810925,-0.005977773257302541,-0.07657121953340704,-0.08783509816893406,-0.07103638261767414,-0.021319952778106763,0.01373401435486923,-0.04452742686337375,-0.1533792195394575,-0.281554390219592,-0.41099189212612197,-0.5235335760793615,-0.630831730322959,-0.7351197101036138,-0.8128016317279381,-0.8624209591654749,-0.9080590881197653,-0.9669031437501909,-1.0036078517176839,-1.0078803574070219,-1.0270095306070117,-1.0015687012750458,-0.9684567821826776,-0.9459290249116238,-0.9172838163126542,-0.9101953409644346,-0.8870849692811982,-0.8457193460162457,-0.7825056822944519,-0.72919646357976,-0.7036585318457632,-0.6540392044082262,-0.6315114471371721,-0.5978169136326217,-0.5572281095839123,-0.5553831639453345,-0.5447990021240204,-0.5241161904915442,-0.5004232043961251,-0.4956651866966354,-0.48381869364892605,-0.44983285293828434,-0.4392486911169701,-0.4260427644408351,-0.3962323270175007,-0.394872893389075,-0.3409810602622001,-0.30291691866628156,-0.2656295962866058,-0.24562650146834256,-0.21678708806531216,-0.17716930803690692,-0.1687213990602617,-0.19804632447344403,-0.3153460261261731,-0.5906313358823712,-0.9009706127715451,-1.1513006052059296,-1.1565441349155716,-0.7823114774903913,0.03859222927465188,1.2768420599663757,2.7903772004142984,4.354696897124123,5.5219648719316226,5.9312514964897805,5.5605145255376955,4.554533640502701,3.1969449577156097,1.8152748792249767,0.7058799360275991,0.0019846237091923507,-0.21348560639627714,-0.0472462941202246,0.2566842242349426,0.46458046698203964,0.5835309094692859,0.6068354859565832,0.5910077944256272,0.5506131951809788,0.5250752634469823,0.5388638045352997,0.6247023279301778,0.7090843152945997,0.7538485226306165,0.7497702217453395,0.7500615289514306,0.7459832280661537,0.7444295896336672,0.7055886288215054,0.6790796730672047,0.6740303481616237,0.6879159916519715,0.7001508943078025,0.6791767754692352,0.656843223002242,0.6110108892438908,0.5331347628155061,0.43253667431200654,0.34630974130900677,0.29892376911816915,0.2688220244887435,0.264161109191284,0.2917381913679189,0.30746878049684456,0.3449503076805809,0.3679635769617869,0.3820434252561956,0.36048669200544575,0.3257240320785608,0.27076407252935153,0.24017681588977405,0.20531705356085866,0.19512130134766603,0.17191382726239926,0.16268909906951085,0.1438512330756122,0.13724826973754464,0.12365393345328793,0.11734227732131153,0.1186046085477068,0.1536585756806829,0.17201092966442955,0.17608923054970657,0.18948936202990246,0.2033750055202504,0.203763415128372,0.21997951626744966,0.21716354660856796,0.23881738226134816,0.25435376658621306,0.2759104998369629,0.2487218272684496,0.18677049477305133,0.1626890990695108,0.14064685380860883,0.10141748338832515,0.08180279817818331,-0.00859953811212358,-0.10686716896689347,-0.2095044079130316,-0.30602419553125415,-0.3722480337159904,-0.4334225469951456,-0.48449841046313874,-0.5516932726681789,-0.6426782233706686,-0.7064745015046446,-0.7858071639634855,-0.8614499351451712,-0.9408797000060423,-1.0269124282049813,-1.0617721905338968,-1.0880869414841368,-1.0921652423694135,-1.1141103852282852,-1.1344047872526395,-1.1437266178475587,-1.1473194067226833,-1.1795574041967778,-1.1983952701906768,-1.2079113055896562,-1.198686577396768,-1.1777124585582004,-1.1491643523612611,-1.1140132828262548,-1.0805129541257648,-1.0623548049460791,-1.0463329086110624,-1.061966395337958,-1.0355545419856873,-1.0231254345257954,-1.014289115941029,-1.0059383093664138,-0.996810683575556,-0.9948686355349479,-1.0087542790252952,-1.0060354117684442,-0.9833134496933295,-0.973409004686228,-0.952920397857813,-0.9508812474151742,-0.964475583699431,-0.9723408782638938,-0.9736032094902888,-0.9748655407166843,-0.9843815761156641,-0.9767104863552619,-0.964961095709583,-0.9300042309786373,-0.875044271429428,-0.8460106532223313,-0.8192103902619393,-0.7942550729401251,-0.7707562916487669,-0.7483256367797433,1
0.8942805443324409,0.9132579905220676,0.9161384957472787,0.9078923435339291,0.8934898174078734,0.877901200894965,0.8777882399057411,0.8823631599693118,0.8842270162915071,0.906084967706345,0.9390695765597437,0.9732967562946061,0.990805709624321,0.9976963299669832,0.9837456477978231,0.9403686279358194,0.9107728487591398,0.8785789668303089,0.8337334541083936,0.7924462125470332,0.7500293610934331,0.7078949121128931,0.6551421301452999,0.5987745965225397,0.5578827184234633,0.5273267708383799,0.53359610574031,0.5496365662101136,0.5499754491777855,0.5328618593103543,0.4785276234936256,0.38832827359828714,0.26875906650471687,0.13145498410298356,0.010247842665665785,-0.08797173746457448,-0.14812346422633751,-0.19494579425967232,-0.2349904649395693,-0.2796665361776487,-0.3320239546829578,-0.38918221523028584,-0.43662583070435224,-0.47074004944999087,-0.47892972116872845,-0.4614772483336256,-0.42137609715911684,-0.3867535539619707,-0.36630761491243213,-0.367154822331612,-0.3821221534037878,-0.413242905934991,-0.4497293054543328,-0.4776871502872647,-0.48373056321074726,-0.4733381522021422,-0.4432905290685665,-0.4235788364489841,-0.41516324275179867,-0.42917040541557033,-0.45215796672264796,-0.4824315118346716,-0.523831714385256,-0.5596968284638656,-0.576528015858237,-0.5646671119897206,-0.5330380350070093,-0.4821491093616115,-0.4178743064931739,-0.34574871487367015,-0.2718722279211952,-0.20584652971978568,-0.16292135381467776,-0.13626256035782114,-0.13445518453023755,-0.1498743595593094,-0.19359026238898494,-0.24436622704515856,-0.28203871695135185,-0.3038401878715778,-0.3095447178273882,-0.29389962081986876,-0.27351016226494274,-0.25323366469924036,-0.24526991495895067,-0.257300260311303,-0.28277296338130775,-0.30655125161295305,-0.307285498042909,-0.3029364999577862,-0.2641908806539651,-0.21386675995468732,-0.16664906645906857,-0.13208300375653453,-0.11496941388910323,-0.12468405896236447,-0.1561436944612394,-0.19494579425967232,-0.22572766382320397,-0.2535160671723002,-0.24142924132533566,-0.22103978277040934,-0.19285601595902901,-0.1758553870808219,-0.1504956450000411,-0.11078985728781635,-0.09153000862512964,-0.06910725226417212,-0.054422323665056366,-0.05261494783747267,-0.053349194267428464,-0.08339681740100392,-0.12875065457442714,-0.1800349436821085,-0.21544821380382284,-0.2238638075010083,-0.22516285887708395,-0.18799869342239872,-0.1378440142069568,-0.08040335118656905,-0.036856889840729275,0.0007026390762400541,0.05017955235633829,0.15743601162449583,0.3625731680552217,0.7111707808003873,1.2354227317888231,1.9274782322694637,2.705045201592648,3.4665152299514177,4.022735140890237,4.211492953883488,3.9058769975380434,3.1452541765984545,2.0258672538835434,0.7335370566667362,-0.5114624860652286,-1.521955015168236,-2.1717631056791133,-2.427450304787566,-2.3822659090979785,-2.184697138945259,-1.970071259419721,-1.8034538003143674,-1.7338133504577913,-1.7261320031905614,-1.741551178219633,-1.7394613999189892,-1.6910576160365185,-1.6093868208275899,-1.4984591294096534,-1.4122698946317656,-1.377816792918455,-1.3987145759248891,-1.4618032884064753,-1.5241012739634938,-1.5678736572877816,-1.5612089589235676,-1.5061969571714948,-1.4049839108268198,-1.248194057783952,-1.0637852428758243,-0.8668377581638358,-0.6866084998569945,-0.53874256496282,-0.4441377364877466,-0.41352530840805113,-0.42798431502871886,-0.49864141378831106,-0.5825149482871073,-0.6611357967869891,-0.7289688708159815,-0.7677144901198031,-0.7970843473180347,-0.7988352426510064,-0.7633654920346803,-0.7063766729711886,-0.6430055580165426,-0.6051071461319011,-0.5931897617687725,-0.608721897787068,-0.6557701497988505,-0.7072238803903679,-0.7615016357124846,-0.7984963596833345,-0.785223443449518,-0.7434843579312621,-0.6977916377901666,-0.6611357967869891,-0.637018625587672,-0.6288854343635462,-0.6244234752891994,-0.618493023354941,-0.6074228464109923,-0.5931897617687723,-0.565853202376572,-0.5358620597376086,-0.5103328761729918,-0.4811889409532079,-0.4562245623347109,-0.43521381833905287,-0.3909895910578693,-0.33072490330688215,-0.2499577960117453,-0.1671573909105766,-0.10226130260140683,-0.058771321750179024,-0.023922856574584844,-0.00195194417052312,0.017985670427507414,0.08451969308042456,0.20312873176559088,0.37313502054766295,0.5566401475419991,0.7335935371613453,0.8731003588529459,0.9642033966620764,1.0317540682180093,1.0589776666209858,1.0694265581242028,1.0849022136478865,1.0808356180358238,1.0720246608763542,1.0596554325563299,1.0741144391769977,1.104783347751305,1.164935074513068,1.2577325271605577,1.3623344031819522,1.466427954751839,1.540812766155822,1.566003066752767,1.5589994854208808,1.5316064455340686,1.4980005512399384,1.4753518729005328,1.4943857995847711,1.5378757804359988,1.607233827819515,1.6534348724121182,1.6460924081125603,1.5408692466504343,1.3178842539223212,0.9880381653883344,0.6084327611011897,0.2511371521857785,-0.012852679630635282,-0.17009437663039897,-0.2081622299988766,-0.17303136235022243,-0.09717805808632823,-0.03126532087414279,-0.006300942255645778,-0.03408934560474202,-0.0955966042371923,-0.17698499697305708,-0.25840162995623217,-0.3273360736301589,-0.3712778984382831,-0.3777166748240503,1
0.5101622288885252,0.5368055047798979,0.505846184195842,0.4316849162552151,0.3287223500768738,0.21135913477967594,0.11117709739373616,0.012821078916239282,-0.05175358975506244,-0.11060119912261125,-0.10487413981885836,-0.08794196448602357,-0.06619573930365716,-0.05963867140515737,-0.0651167281304863,-0.07789886048958718,-0.11109920427945949,-0.14703857643199628,-0.1934360568783429,-0.254275686873284,-0.2825789799541502,-0.2959421183295738,-0.2786779395588401,-0.241576555373658,-0.18870500788828629,-0.128695386488092,-0.08146789744699855,-0.05698264390196762,-0.0733338132184797,-0.114087235220548,-0.15741368386633145,-0.20679919525376655,-0.23244646083144296,-0.2673898226702836,-0.29361809426428276,-0.3142023074140036,-0.327897449227326,-0.3472366494849266,-0.3556197362918693,-0.35288070792920495,-0.35503873027554655,-0.3727179133436536,-0.4001081969702983,-0.44658867827611953,-0.49248815356561804,-0.507096304833162,-0.5137363735911364,-0.4817810426933844,-0.4153803551136397,-0.3308024793089401,-0.2618287650854802,-0.2115302442438235,-0.18140093225451442,-0.18621498210404583,-0.2067991952537666,-0.21045123307065255,-0.2275494101224368,-0.21634429409335493,-0.19634108695995683,-0.1742628583396917,-0.1568326778500088,-0.14861559276201533,-0.15044161167045828,-0.16554776809485017,-0.17907690818922317,-0.18480396749297615,-0.18986701992093166,-0.21244325369804481,-0.24888063100742977,-0.297187131221694,-0.3457426340143823,-0.3688998738078184,-0.3763699511605396,-0.3500586787070659,-0.30797724295340273,-0.25618470664120185,-0.2231503645702788,-0.23360847286408848,-0.2613307599286319,-0.3114632790513391,-0.37246891076522953,-0.407993278620393,-0.4253404582506014,-0.4131393319078233,-0.38325902249693816,-0.337276546347965,-0.29428210114008035,-0.27261887681718866,-0.2485486275695312,-0.25825972812806886,-0.2853180083168148,-0.313870303976105,-0.33694454291006615,-0.36184480075247044,-0.3824290139021913,-0.37097489529468547,-0.33370750939055377,-0.29569311575114987,-0.24962763874270205,-0.22572339121399393,-0.20771220470798818,-0.22854542043613296,-0.25884073414439146,-0.30457420771494065,-0.34989267698811627,-0.36981288326203987,-0.34922867011231906,-0.3234154028156933,-0.2990961509896119,-0.2614137607881068,-0.23086944450142421,-0.2347704848967342,-0.23518548919410753,-0.24365157686052502,-0.24331957342262625,-0.23900352872994285,-0.20397716603162747,-0.18231394170873574,-0.13234742430497795,-0.05772965163723986,0.028425240497478958,0.14504144805940544,0.3294693578121463,0.6056962181438843,1.0014443161191626,1.5031845116436082,2.1194658932431136,2.8205741532257433,3.5494877011323904,4.150662926307503,4.451873045341121,4.314340621191576,3.7024582851442296,2.6793066903998395,1.3846592843137673,0.028508241356956787,-1.1856283310386753,-2.075065541169357,-2.5732366997363916,-2.7042120559874387,-2.590583879366601,-2.3501303894684518,-2.096147759475928,-1.904581775808365,-1.8071387667850891,-1.7726934101030971,-1.7806614926126658,-1.7946056370044121,-1.7815745020668872,-1.712185783546054,-1.6054466782616148,-1.4807793873306438,-1.3750362923599007,-1.321583738858206,-1.309631615093852,-1.3312118385572689,-1.3592661290597108,-1.3666532055529574,-1.3545350800696538,-1.305979577276966,-1.2472149687688918,-1.1786562588428053,-1.0838692773227199,-0.9753871539893118,-0.8412577650782276,-0.6900301991153591,-0.5310005523618705,-0.37612094858211603,-0.2663938123565878,-0.19825010672787474,-0.16778879130066673,-0.1901990233588305,-0.22987343418772793,-0.28755903152263096,-0.34341860994909135,-0.3669908540399007,-0.3833420233564129,-0.38840507578436834,-0.37246891076522975,-0.3366125394721677,-0.2908790659016185,-0.25369468085696145,-0.2083762115837856,-0.17791489615657777,-0.1693658076306856,-0.16928280677121083,-0.2009061342310642,-0.24240656396840463,-0.27552390689880235,-0.29926215270856105,-0.3128742936624088,-0.29403309856165627,-0.2422405622494555,-0.1855509752282484,-0.1363314655597626,-0.1143362377989722,-0.1056211475541307,-0.11732426874006062,-0.1437185420530091,-0.16264273801323634,-0.16247673629428705,-0.13160041656970567,-0.07349981493742924,0.00950104453725166,0.09540693409354636,0.14728247126522195,0.20397205828642898,0.24198645192583287,0.2678827200819333,0.27360977938568637,0.2648946891408449,0.24530648630482027,0.22073823190031472,0.22613328776616895,0.2643136831245221,0.34274949532809545,0.46293473984743333,0.5958191158663975,0.7272094764148173,0.8388456324082629,0.9459997419900761,0.9937252361880177,1.0031873341681314,0.988496182041113,0.9807771021099676,0.9812751072668159,0.9992032929133469,1.0165504725435552,1.0484228025818325,1.1159025013347479,1.1966623376036125,1.251691907435326,1.3070534807049383,1.324483661194621,1.322906644864602,1.3131125434465898,1.3142745554792352,1.3200016147829883,1.3268906861193872,1.360921038504006,1.3998484415976313,1.4476569366550474,1.4964614420261602,1.5293297823781336,1.531819808162374,1.503516515081508,1.4443369022760602,1.367229103824082,1.2508618988405795,1.1527548829415066,1.0727420544079145,1.0040173427628785,0.9601098881007722,0.9276565520461718,0.8731249873713066,0.8044002757262685,0.7101527997927688,0.5826219792099222,0.41404723361684626,0.19666798265265825,1
-0.1342019966363944,-0.11876645205351828,-0.1055144723140734,-0.09288995373653407,-0.07933679263937453,-0.06329888534107053,-0.039380065849231656,-0.008797608817955884,0.020881304140175902,0.05398615504231194,0.09002752418216577,0.12836540117459394,0.16074239712891952,0.18936717533505001,0.21238245075374504,0.22706504194233454,0.2341177054021528,0.23096785036938702,0.2158962332604161,0.1951147195781048,0.16931351660054925,0.1485069044717617,0.1337113702740292,0.12852854107668948,0.12959522505192886,0.1344141267753634,0.1381035984073679,0.1433366244976601,0.14495547429537634,0.13919538082908356,0.12368454090677873,0.10535012575589907,0.08350192809834835,0.059884289964224034,0.034697998925335836,0.011758018846069588,-0.011018821331101372,-0.029629319393219562,-0.05194183831058033,-0.07665125886642028,-0.10092145660892632,-0.12278220348971519,-0.1397362040844027,-0.15327681595832415,-0.1660017283217684,-0.175702277884828,-0.18710952180827065,-0.19980933572523865,-0.2164998026319258,-0.2365911090361411,-0.25592946204606964,-0.2721681569161848,-0.28152987745181535,-0.28439110035010456,-0.2857338672365825,-0.2860224993710591,-0.2887707792602051,-0.29025158760230235,-0.289310395859444,-0.28780448907087075,-0.28759115227582294,-0.28820606421449024,-0.29025158760230235,-0.2937277224392591,-0.2968775774720249,-0.29645090388192913,-0.30132000249831603,-0.30485888345146334,-0.30763226178708564,-0.31053113235508917,-0.3119115469112814,-0.3127021479752824,-0.31375628272728373,-0.31467237602366577,-0.3105687800248035,-0.30366670724384265,-0.29808230290288346,-0.29266103846401964,-0.29144376380992293,-0.29299986749144874,-0.2976305308663114,-0.30266276938479386,-0.3061514534449886,-0.30687930839279903,-0.30546124616689263,-0.3023866864735555,-0.29696542203469156,-0.2927990799196389,-0.2895739295474444,-0.28398952520648507,-0.2824083230784833,-0.28283499666857886,-0.2851189552979151,-0.28907196061791995,-0.2905778674064932,-0.29101709021982713,-0.29246025089220984,-0.29469401262859357,-0.2974422925177397,-0.29574814738059496,-0.2930124167146867,-0.2885448932419194,-0.28395187753677087,-0.27991102765409925,-0.27261992895275694,-0.2648394105451284,-0.258790684944359,-0.2545741459363536,-0.25560318224187883,-0.25608005272492695,-0.2560549542784507,-0.2537458972026384,-0.24867601101444178,-0.23942723348795408,-0.2271164454913677,-0.21410290099344687,-0.20479137735076863,-0.19673477603190148,-0.1966092837995204,-0.20011051708295335,-0.16304011163757434,-0.024195505731117898,0.26005694983532707,0.6687475030308778,1.132516597018496,1.5756296695561847,1.9375618169665354,2.1787578876030227,2.2713209582073275,2.22082288389717,2.0903235114440575,1.948441993513978,1.838335108822795,1.7507415306207823,1.6584545429277164,1.5503931816243457,1.4314641929967702,1.3121210800023377,1.1933175836071437,1.0706991233475642,0.940751916716928,0.8015182848900899,0.653136269322669,0.4943007507979021,0.32079519030778375,0.1306493598039306,-0.07151862656203256,-0.27706235397904744,-0.48461395711416033,-0.6889529591003166,-0.8865279297611314,-1.075682371629174,-1.257194336545207,-1.424864508229604,-1.5749783166038842,-1.7088534301080491,-1.822737630993903,-1.9134434165589673,-1.9826523827171483,-2.0290594102516817,-2.0599932455336245,-2.089007049660136,-2.1235174135649406,-2.159044264552032,-2.2005068981307496,-2.249963386912144,-2.305280362945736,-2.3605220436398997,-2.407067112630051,-2.432140460659797,-2.43138750726551,-2.4016709466376644,-2.3368918562825374,-2.2311019043852642,-2.097000904862813,-1.9431599771868142,-1.7840985726437613,-1.6344490855292915,-1.4995574849428395,-1.3791602371964056,-1.27763702120009,-1.1916120959028413,-1.1199560312132288,-1.0523910132992411,-0.9881891872130669,-0.9243261901543214,-0.8678421363595852,-0.8210460829046704,-0.7815160297046215,-0.7428016760150502,-0.7009751149624274,-0.6521460873429387,-0.5965781268445844,-0.5335559277427927,-0.46496187352327967,-0.39003046156852067,-0.31616573358900113,-0.24246414551157716,-0.17474853691873182,-0.10670664852169556,-0.037798863721229814,0.034434465237335385,0.1119761156256213,0.19145034639257627,0.26655744747266874,0.34264338796533395,0.4118649033467525,0.47171214896930236,0.5190854666931702,0.5584649292143616,0.5895870028448761,0.6166431281462428,0.6362952117371242,0.6558469015421007,0.6734158140754556,0.6941973277577669,0.7134352869817906,0.7339407177528635,0.7557010708477474,0.7809877556725405,0.8080815286436214,0.8358027627766079,0.8579521417918733,0.8808419249781873,0.9031042470025956,0.9240363513637642,0.9435001966060738,0.9654362388262914,0.9869707059028893,1.0090949864716785,1.0347079511006625,1.0634833199856502,1.0944799013837836,1.128638887037921,1.1621578623069144,1.194986630297812,1.2259330148029932,1.2547334821344571,1.2809990063718226,1.3058966652762345,1.3343583035802695,1.360837164612683,1.3880062329231924,1.4132427208550333,1.4329073536691526,1.4533249398775587,1.4725503498783443,1.4885757079534117,1.5020912213808568,1.5132976777324898,1.5277292844563173,1.5371913987778525,1.5461138965001493,1.5488872748357716,1.549251202309677,1.5525892956910095,1.5549422750481554,1.5559650367420612,1.5553124771336795,1.552639492583962,4
0.41283933527556543,0.3956298033504031,0.377546136470312,0.3578234665497293,0.3356969255030921,0.3104016452448346,0.2696997364059585,0.2305275637382081,0.2022274445723855,0.18458084516975864,0.17436439288402725,0.17687753087944783,0.17234295580075432,0.16458500807576046,0.16021433330111606,0.155188057310275,0.15617145913456992,0.1538222214431986,0.14606427371820477,0.13437271869603112,0.12005875880907056,0.10372336183883706,0.0858035952627951,0.07028769981280741,0.05848687792126744,0.05635617396862815,0.048161158766170074,0.03756227243765761,0.018058136255806833,0.010300188530812986,0.00991775448803141,0.0034710091954310352,-0.001172832752628587,-0.010187349475332735,-0.01767213002691136,-0.019857467414233426,-0.0316582893057734,-0.026795913618981468,-0.026795913618981468,-0.007838111783961401,0.002378340501769871,0.008005584274124436,-2.553062428463794e-05,-0.0029211026624865535,0.00041153685317985375,-0.0006264984057982652,-0.01570532637832121,-0.042639609677067564,-0.07236019814464961,-0.08940582976576271,-0.1000047160942753,-0.08973363037386098,-0.07787817504763796,-0.06045010938374342,-0.0471741847557611,-0.04739271849449328,-0.06252617990169966,-0.08175714891013508,-0.09230140180396462,-0.1000047160942753,-0.11158700424708322,-0.11639474649919199,-0.11033043524937267,-0.10186225287349936,-0.09306626988952726,-0.08940582976576245,-0.10366515621804011,-0.10852753190483191,-0.11328064072225788,-0.11207870515923063,-0.11060360242278815,-0.10262712095906198,-0.09350333736699187,-0.08306835134252856,-0.07181386379781877,-0.07214166440591731,-0.08563612277263181,-0.09754621153353775,-0.11464647658933401,-0.12486292887506555,-0.12748533373985196,-0.12442586139760119,-0.1261194978727756,-0.12027372036168897,-0.1166679136726072,-0.11672254710729026,-0.11601231245641067,-0.10279102126311113,-0.09989544922490921,-0.11065823585747094,-0.12939750395375882,-0.14600606809740768,-0.1569327550340188,-0.15824395746641215,-0.16627507236482109,-0.1554030188628933,-0.1492294407437081,-0.13906762189265964,-0.1372100851134361,-0.13120040729829982,-0.1278131343479505,-0.12174882309813119,-0.11836155014778187,-0.11748741519285315,-0.12054688753510394,-0.11814301640904969,-0.12377026018140438,-0.13223844255727768,-0.14147149301871415,-0.13589888268104275,-0.13027163890868806,-0.11978201944954105,-0.11207870515923037,-0.097546211533538,-0.09645354283987684,-0.10371978965272315,-0.10399295682613811,-0.10290028813247722,-0.10093348448388707,-0.09071703219815605,-0.08164788204076887,-0.07755037443953983,-0.08809462733336937,0.056902508315458865,0.6057499931414296,1.4963842453445928,2.3905696708021553,3.03174766024249,3.3423387364156594,3.3197204944568743,2.9874945781492173,2.387346298155858,1.6242811159376278,1.028339610414863,0.8373957561975849,0.8857463458920882,0.9193459082221668,0.8717055531785427,0.790520269239523,0.7204802059758463,0.6838211713035162,0.6522976794913934,0.5999042156303437,0.5313392551031094,0.44179505565758226,0.34389194070554746,0.254238474390654,0.15201931809865812,0.043134882775329265,-0.06591345285204846,-0.1746339878713283,-0.2990343186446446,-0.4157313351276505,-0.5340127212164647,-0.6780810884756808,-0.8717566144271112,-1.1090296212556194,-1.3847645661009984,-1.6613190124666233,-1.917003486783321,-2.167770951978544,-2.390566098616042,-2.551953264669788,-2.669579049542406,-2.7609807857671567,-2.845826509829942,-2.906032554850668,-2.9381570144443048,-2.9369550788812777,-2.9058140211119357,-2.8737988283876663,-2.8329876526794235,-2.791138441712204,-2.7303314289099623,-2.6717643869297287,-2.588885466515534,-2.464649036046266,-2.3023331016029096,-2.10079036105712,-1.8896867694417943,-1.6883625626347367,-1.478406273147756,-1.2673573149671136,-1.0558166558743247,-0.8878734776586131,-0.7210229681365632,-0.5767360671386146,-0.4429387855998127,-0.3241110651641678,-0.24237944687831708,-0.1896035489744858,-0.13398671246713592,-0.08771219329058831,-0.036138230949784016,0.005437812844020923,0.04466461894645453,0.07132573507178527,0.09995365484570615,0.11967632476628912,0.12568600258142526,0.1295103430092392,0.1396721618602874,0.14835887797489306,0.17441902631871042,0.19960503970759869,0.21217072968470127,0.24577029201478032,0.28931313945717513,0.34383730727086403,0.3861782191502318,0.43130543619843525,0.48282476510455624,0.5285529499342735,0.5824761499664487,0.6186434837266312,0.6308813730956356,0.632137942093346,0.6267838654944066,0.6353066813049633,0.6297340709672915,0.6280950679267999,0.6425729281178095,0.6503855092774864,0.6644263019910315,0.6751890886235934,0.6941468904586136,0.7039809087015634,0.7239767457955616,0.7431530813693139,0.7583958096458862,0.7733653707490434,0.796693847358708,0.7959836127078282,0.7946177768407519,0.7899739348926923,0.7943446096673367,0.8110078072456685,0.8302934096887867,0.8552062559042599,0.8775513306896294,0.8849814778065249,0.8873307154978963,0.8907179884482458,0.9036114790334469,0.906944118549113,0.9124074620174186,0.9151391337515714,0.9152484006209375,0.9329496334582473,0.9378666425797223,0.9321301319380016,0.9298901611159962,0.9317476978952202,0.9304364954628268,0.9458977574781313,0.9527815702481964,0.9767929647913989,1.0263181733315878,1.1097434280926126,1.2354549612983214,4
-0.19618894386291458,-0.20581354322183498,-0.19965379963212637,-0.18316365273051,-0.16179704215370716,-0.14100790753844641,-0.14723181512388114,-0.15313490273068528,-0.1575622184357886,-0.1526215907648763,-0.15775471042296696,-0.1471034871324289,-0.1304850122393603,-0.13086999621371703,-0.117395557111229,-0.11341738937620882,-0.11867883702575173,-0.1275334684359584,-0.14440859931193087,-0.15390487067939873,-0.15935881031612031,-0.15031168691873562,-0.14485774728201403,-0.15358405070076844,-0.1514666388418061,-0.14351030337176549,-0.13882633168375766,-0.13792803574359164,-0.15820385839305012,-0.1820087008074456,-0.21171663082864492,-0.24546689258059143,-0.290574181576063,-0.3451777419390028,-0.3930440827506986,-0.43763805978036124,-0.4651644139468721,-0.4597746383058772,-0.43025920027185566,-0.38335531939605205,-0.31790804375539616,-0.2578505437557354,-0.1970872398030867,-0.15903799033748972,-0.12650684450433983,-0.09243576277376316,-0.063497800701277,-0.031479966833936245,-0.026090191192941092,-0.03045334290231814,-0.054835661278248723,-0.08865008702592106,-0.10180370614977832,-0.14120039952562446,-0.1607062542263689,-0.15172329482471028,-0.14748847110678565,-0.13844134770940061,-0.1488359150170345,-0.15595811854263494,-0.19137664418346093,-0.22782179375590456,-0.26561438723859737,-0.3129032520887574,-0.34838594172530984,-0.38297033542169534,-0.4154373172591188,-0.442322031468369,-0.4550265026221436,-0.43487900796413737,-0.412164953477086,-0.39734307046434936,-0.40408029001559337,-0.411651641511277,-0.4434128193957128,-0.4864668605279488,-0.5085392750577387,-0.5134157387329249,-0.49711808381848716,-0.45817053841272387,-0.42467693264368217,-0.4059410458916512,-0.40401612601986725,-0.4128707574300736,-0.4448885912974142,-0.472222453476747,-0.47895967302799103,-0.45573230657513064,-0.42936090433168966,-0.41793971309243816,-0.4146031853146795,-0.4095983936480408,-0.400679598242108,-0.394327362665221,-0.4005512702506558,-0.41017586960957586,-0.42429194866932546,-0.42063460091293586,-0.4234578167248855,-0.4133199054001568,-0.404401109994224,-0.39150414685327106,-0.379826299631115,-0.3808529235627327,-0.3881676190755121,-0.39034919493020087,-0.39118332687464014,-0.38335531939605205,-0.3841894513404919,-0.3782863637336878,-0.3886809310413214,-0.3814303995242681,-0.3576255571098729,-0.34440777399028905,-0.3349756666185476,-0.3286875950373864,-0.30424111266572973,-0.28127040219577415,-0.26009628360614967,-0.22403611800806275,-0.1802121089271136,-0.11547063723944503,-0.06882341234654604,0.04885335581518268,0.4430769455565464,1.2258776934153741,2.2141957195850073,3.0982472526996743,3.697859792760392,3.968375198741772,3.8983722794045614,3.512169189128964,2.8829128830427733,2.2791296832598578,1.9473376613600213,1.9606196084753305,2.1126241143505404,2.2305575384951735,2.281375423110271,2.3094150892425915,2.3293700919134186,2.337583083366364,2.320002148537404,2.302036229734086,2.2604579605035515,2.2446736175549233,2.2398613178754627,2.2433903376404003,2.262960356336871,2.285995230802553,2.2892675945845857,2.2514108371061665,2.1391238445854333,1.9559356367873226,1.7059527094383067,1.4245935881792116,1.1143606688433563,0.7757030994008237,0.4216461709840194,0.06964249043045105,-0.28569771790087595,-0.5943907013393044,-0.8579763957822607,-1.0423195555034424,-1.125540257960238,-1.1349082013362537,-1.0896084203536034,-1.0525216308238983,-1.0598363263366777,-1.1086009630885392,-1.2052961046478219,-1.2849877873396796,-1.3551831986640697,-1.3851477846681741,-1.3836078487707468,-1.3584555624461025,-1.2965373065703838,-1.2279459951391478,-1.1703267269770794,-1.1136699187509038,-1.0804329689647667,-1.0368014518709954,-0.9827112034738654,-0.9221403915083953,-0.8796638263376954,-0.8522658001626361,-0.8522016361669094,-0.879471334350516,-0.901928732854663,-0.9061635565725876,-0.9192530117007189,-0.8979505651196428,-0.8568214438591913,-0.8110725149064579,-0.756725610526423,-0.6914708268729454,-0.6432836660826188,-0.597598901125612,-0.5440219646942905,-0.510079210955166,-0.5042402873440877,-0.49968464364753234,-0.5188055143739203,-0.5461393765532528,-0.5789913423650334,-0.6073518284759843,-0.6376372344587191,-0.6516249855270161,-0.6527799374500863,-0.6585546970654385,-0.6618912248431974,-0.6510475095654807,-0.6239061393733266,-0.5649394273010102,-0.5082184550791081,-0.46323949407508874,-0.4240994566821474,-0.40202704215235746,-0.3936857227079598,-0.38919424300713035,-0.3974072344600755,-0.40485025796430685,-0.4166564331779154,-0.40517107794293744,-0.3864351911909065,-0.38605020721654976,-0.38797512708833376,-0.4058768818959248,-0.41511649728048816,-0.39092667089173594,-0.3487709256996663,-0.2888417536914574,-0.22846343371316608,-0.16000045027338183,-0.09596478253870062,-0.03635643050912242,0.03364648882808905,0.09986373241745887,0.15228571692571005,0.21118826500230045,0.2507132863695987,0.2845918761129973,0.33265070891187115,0.37679553797145093,0.4250468627575034,0.47875212718027715,0.5309174557056234,0.5762814006840001,0.6054118547436647,0.6418570043161084,0.6453218600853198,0.6464126480126641,0.6742598221578059,0.7006953883969729,0.7427228055975903,0.7708907997213651,0.7927386402661136,0.8060526693792863,0.8086192292083316,0.7982246619006982,4
-0.030945944905446485,0.0030008997842125495,0.04890439174141162,0.10378233689242865,0.16465254116354158,0.22853281048102986,0.2884135952230108,0.3470959281409728,0.40278213149888675,0.45293594678545634,0.5023233103241067,0.5526025449876086,0.6018784246356526,0.6493426910613418,0.6915393436558772,0.7239532848496981,0.7460270951897722,0.7632234853158145,0.7776327781766964,0.7905091675417395,0.810116396802146,0.8325804007593427,0.85185317834793,0.8667641487165406,0.8692725362551853,0.8634893094299767,0.8499161457486432,0.8296539486309238,0.8098376870756301,0.7934774261291357,0.7839037470233081,0.7732012935250906,0.7560188388853738,0.7325793508853711,0.7022417971540953,0.6681695330875038,0.6340693980482606,0.5987290047260211,0.5686562252349354,0.5438928660339811,0.5189762164834429,0.49031092111126373,0.4582871735345653,0.42191555422421617,0.3865054834703474,0.3510814772301529,0.3185003102004225,0.28452559453811166,0.2448791359411984,0.20057822491146662,0.15057769997448087,0.10296014319920761,0.060707748659369065,0.027610968635583873,0.008547223341883544,-0.0017092945939084464,-0.005792392087369126,-0.015463619597477309,-0.0323673645106779,-0.052796787464306966,-0.07697485623957741,-0.099076537552303,-0.11568763725266172,-0.12229305777109298,-0.12156841248215118,-0.11885099264861934,-0.12099705754279319,-0.1285082846724017,-0.1369392538995133,-0.14365615830855097,-0.14623422327882474,-0.1398238995689548,-0.12127576726930933,-0.09053408443458509,-0.05331240045836183,-0.014446329095693714,0.02259419355829411,0.06268658771763301,0.1042561434275073,0.14610440886389756,0.1874649322788847,0.22365539026699846,0.25275268571527776,0.2740739797937583,0.2784218515274093,0.2683883013728302,0.2462726845737789,0.20999861366771033,0.15939886281871496,0.10001975558446298,0.032488388849615385,-0.03699394597084475,-0.0981149889958224,-0.14479886818726678,-0.17455113149285897,-0.18402726219440593,-0.17942855170689057,-0.16864248529071807,-0.15781461241556813,-0.15200351461770778,-0.15593332176158453,-0.16878184015397607,-0.18890468240843747,-0.21060223461771474,-0.2293036572669441,-0.2435457242919161,-0.2454409504322255,-0.22193178500059366,-0.16685874304101517,-0.07248762964266862,0.06618439478540976,0.2431372001504725,0.45193259176999806,0.684125664930549,0.9302960308758819,1.1815389138438073,1.4294512155798655,1.6637206762029613,1.8742858745858642,2.059836875013948,2.213754321482457,2.3431592475038756,2.4588795259533547,2.567841093534818,2.68092756506872,2.8013719733826465,2.923474704569344,3.031502594566979,3.1165926740723395,3.172669071047376,3.184165847266165,3.14987061541836,3.0522246627334497,2.880065664664464,2.629519556012829,2.303108659803515,1.9002058791518615,1.4411988305525203,0.9568710032991921,0.4873147915512166,0.0705740729780393,-0.26192663075565104,-0.4996520919875467,-0.636707600001832,-0.6931741905939912,-0.6992639981183679,-0.6957243845916137,-0.7019256760065964,-0.7312041327771114,-0.7804660769388295,-0.8364727964822367,-0.8888005476356319,-0.9272764253811776,-0.9514266231837964,-0.9700723038877227,-0.9907525655952161,-1.0197662481255407,-1.054075415459671,-1.0900150346939201,-1.1229027824228184,-1.1471923350886952,-1.1633993056856056,-1.1725688556879847,-1.1820867928485093,-1.1947262789460136,-1.21051518495315,-1.2288542849579083,-1.2498689983372213,-1.2760398416570815,-1.3050117177284286,-1.331767851473973,-1.3567402429698143,-1.3755252785369982,-1.3858514739044194,-1.3901714746654188,-1.3871892805916965,-1.3800543115928847,-1.3719577940375924,-1.3682648901612544,-1.3714421810435378,-1.383886570332481,-1.4066710904751711,-1.429162965405019,-1.4450633553027619,-1.4503449046202417,-1.439349805909182,-1.414809414489441,-1.379636247003111,-1.3423309501089329,-1.3070602342183222,-1.28086151992581,-1.264766033219506,-1.2577146771386492,-1.25591699940262,-1.2515273212099918,-1.2372573832123681,-1.212995701519143,-1.1738927268889363,-1.1208263949602735,-1.055287802770016,-0.9832413384656077,-0.9104980998449095,-0.8429946040827135,-0.7836015613621357,-0.7261873576998219,-0.6640629596593866,-0.5916123662515301,-0.5064804802871916,-0.41640149667719273,-0.33539451466529235,-0.2724200519589828,-0.23277359336206951,-0.21447629981628846,-0.20998907321937943,-0.20229668476753546,-0.18260584258917403,-0.14415783581628003,-0.08960040685075628,-0.02941304140960756,0.023987742190874486,0.06605897540847765,0.09236917359159622,0.10849253127055178,0.12102053347744988,0.13434285840491875,0.14423705369623974,0.14556092489719125,0.13375756797923502,0.10615136956781668,0.06678362069741967,0.021130967494084857,-0.02066155599700223,-0.04946620623243972,-0.06154827287691207,-0.06145072447263145,-0.060600659806757384,-0.07290569423244254,-0.10218415100295736,-0.14807370747383083,-0.20362055596848672,-0.26259553409929043,-0.31591270478181765,-0.35518290524793417,-0.3845867813953812,-0.40657697881750043,-0.4260169822419974,-0.4461676954691104,-0.4639772469934883,-0.4822187985939661,-0.49873234989004417,-0.5183535146367766,-0.536985259854377,-0.557205650513119,-0.5823870743038474,-0.605547852577334,-0.6263535336617584,-0.6390208907319145,-0.6400799876926757,-0.6260608884489169,-0.5934936569055127,3
-0.35660754118338334,-0.2660320277907743,-0.184703843003582,-0.11133767715556868,-0.04464822058049613,0.01664983638787289,0.07456640752291858,0.13106827540116545,0.18323977111530848,0.23228856817724913,0.2804402363446345,0.32667687937171896,0.37320681453740806,0.41601021429494406,0.46374782297253464,0.513590234056582,0.564881853354911,0.6179159730061267,0.6617372690094081,0.6920843791156176,0.7094748776869987,0.7176353001317043,0.7245880490645085,0.7253299056503908,0.7285388666963003,0.7288494113136463,0.7327312190304726,0.7302468620917039,0.7187912162073815,0.6994856924956997,0.6740210338733204,0.6417416461480684,0.6103766397961133,0.577424405399945,0.5449552404085372,0.5089838222326152,0.47439260235600905,0.43792086229658506,0.4081430839888433,0.38319599972870744,0.3618029260893102,0.33877086696947517,0.3170499962339904,0.2884281340019258,0.25159409188893134,0.20820410785418603,0.16243328175312072,0.11661069821583109,0.07341049144724174,0.03428186966163445,-0.00072340970476644,-0.03205391109923857,-0.06020995640528402,-0.09181649745961937,-0.12464796450459757,-0.1581867831779753,-0.19362337451291234,-0.2267308812177538,-0.25633613473808103,-0.2793336889004331,-0.2938257710432506,-0.29506794951263504,-0.2865107200568761,-0.2719841329565758,-0.26325437871340224,-0.2605629920297362,-0.26687739924910664,-0.27786722820741,-0.29049604264615086,-0.2912551517107747,-0.2795062136878477,-0.2513846733392851,-0.20504451543975205,-0.1490774744024902,-0.09331746311012565,-0.0403351008951345,0.005590997514603847,0.03973365294393226,0.06245516744642118,0.08591853853479241,0.10163554666825282,0.11278064793522917,0.12363245706360085,0.1312580526673215,0.13179287950830645,0.11845671344116607,0.09261250028647487,0.047255733675204394,-0.014594402612891744,-0.08519154562290272,-0.16384559620517053,-0.24206833481890222,-0.30628206069457703,-0.3518976144869692,-0.3799501449205661,-0.38857638429129077,-0.381554625443521,-0.3699954646867499,-0.3579877394827011,-0.35051741618765353,-0.35077620336877524,-0.3504829112301705,-0.347584494801607,-0.34556595478885754,-0.3425467710091038,-0.33935506244193575,-0.34418575648954153,-0.3640433595209498,-0.3957361629689923,-0.4355893888617404,-0.4794624423012464,-0.5110862358343232,-0.5306850516846097,-0.5315476756216821,-0.5063590566591659,-0.45261758537955105,-0.37308365838146934,-0.26080452673211674,-0.10437630198339481,0.10727710721670643,0.37996978620405586,0.7256059453102532,1.1397344450200049,1.6158683533265255,2.135288730795343,2.673566067528565,3.1933314945722113,3.6584065640054635,4.02890354497809,4.271507901040351,4.37409113963701,4.340138261473838,4.173824366406266,3.8863118081800114,3.4999943042014765,3.0420100035309607,2.5287832659303238,1.9750822132022463,1.4001778641009275,0.8310358428992526,0.30968318781139276,-0.12671826195357047,-0.4562578583939959,-0.6746224818245213,-0.782778271054668,-0.8048096864074992,-0.7796728248812075,-0.7420106637886236,-0.7221703132359568,-0.7307965526066815,-0.7682516839543679,-0.8190947388054195,-0.8711799721258551,-0.9166057486520914,-0.9448998137880685,-0.9627216243279859,-0.971986205412144,-0.9800086080269181,-0.9911019518576702,-1.0040585633924985,-1.0215870817938113,-1.0359756490641803,-1.0460683491279281,-1.05597127192552,-1.064908055913591,-1.078503009161853,-1.0919599425801836,-1.108022000288473,-1.1188910618955858,-1.1300361631625624,-1.134815099773944,-1.127413786393862,-1.1154060611898131,-1.110402842354793,-1.1106271245784316,-1.1166827446166807,-1.1243600976566255,-1.133331386602179,-1.1407499524610023,-1.1469090873717,-1.1436828738470488,-1.1344527977203736,-1.1251709641574736,-1.117700640862426,-1.1103510849185685,-1.0998788303225089,-1.0888199914492398,-1.0789343211303892,-1.0687381061941927,-1.0567648859476269,-1.0418932492724975,-1.029592231929844,-1.0118394313048924,-0.987254649098327,-0.9548544940218852,-0.9137073322235283,-0.8734918042772095,-0.8348635043751044,-0.8009796361268978,-0.7689590355827676,-0.7417346241287606,-0.7126641974494181,-0.6762442148262187,-0.6296107647880808,-0.5752136993162907,-0.516451756722914,-0.46115756235656863,-0.4091068339936158,-0.36307722071142867,-0.317444414440295,-0.27438222750163727,-0.22679989113271976,-0.18078753032927417,-0.13073808950032947,-0.0844496890370207,-0.03990378892659826,0.0019334720214165763,0.0459963027270784,0.08976584129413558,0.13500184055421593,0.1802378398142963,0.22326552179547118,0.2571321375649364,0.2840460044015975,0.2992799431302974,0.30366207273062557,0.3072850932663299,0.31342697569828587,0.3232263836234292,0.33337084112340143,0.34765589352132154,0.35593708331721724,0.35436710775174535,0.34736260138271696,0.33143856350435913,0.30800969737347084,0.28314887550704226,0.2585123358642525,0.23843045060920534,0.2191249268975235,0.20182069071984965,0.18225637982704604,0.16162241525227253,0.1410402081137234,0.11743881719542061,0.0936649014897033,0.06433568762923932,0.028381521932058732,-0.00881482223450621,-0.05073834557622828,-0.09060882394771788,-0.12495850912194369,-0.1556506688029822,-0.18101181255291285,-0.20140424242530608,-0.21391228951285576,-0.22625643805236265,-0.241309225754277,-0.2619431903290502,-0.2910308694871336,3
0.4672245416488352,0.5108862049462508,0.5536063338377644,0.5954168447439152,0.6363496540852424,0.6764366782822844,0.7162843293252841,0.7559245236347798,0.7935220670297767,0.8327633060825345,0.8649988908269715,0.8976493890384161,0.92597521226682,0.9483964976955,0.9565192267226874,0.9513008919645534,0.9419015061158041,0.9294700603158457,0.917373736931547,0.9087563033860044,0.9004739922561218,0.8966918964222447,0.8886968330772136,0.8693076075997429,0.8361624048699431,0.7941125208097493,0.7512328098155403,0.7076190211489332,0.6694788986047724,0.6344346688528993,0.6013213825436385,0.5671069797257806,0.5330202425900789,0.49385879458866877,0.4515057045333539,0.413078334204342,0.3762148684817431,0.33758004141922726,0.29891329793617233,0.25873052447751266,0.21849987638804455,0.17721598642078787,0.14308137465427753,0.11786740242843076,0.0987973411563504,0.08370087424138138,0.06994489698905229,0.05095462676831961,0.022916051324767126,-0.006032142104148101,-0.03617720130327758,-0.06397640359278711,-0.08461036947128063,-0.09311609554493666,-0.09584494950102511,-0.09235010145199939,-0.08528061430260063,-0.07766854800403819,-0.07495565225821912,-0.0703277712800576,-0.06305082739715479,-0.051688581685254135,-0.041682783846263186,-0.03852305821289754,-0.0451776318952886,-0.055821758145060525,-0.0680297890012459,-0.07426944921662959,-0.07201934156862676,-0.05253436682953887,-0.016053898153408727,0.03137390276761438,0.08100393670583175,0.12381981485896278,0.1558000682390874,0.1778543148315686,0.19783399408901178,0.21597847916545973,0.23737843913689044,0.26332648903513534,0.2876946761166973,0.30615832539853577,0.3200898429638296,0.32390385521824566,0.31576516798078885,0.2897373270311964,0.2517089119589225,0.1988553195462614,0.13416073511361404,0.0621892067980641,-0.013883581556753347,-0.08684451890901378,-0.14304933547827478,-0.1868227062475771,-0.21066427239024496,-0.2217073538967552,-0.22633523487491702,-0.22900025598992738,-0.23929330161376985,-0.2534801505433761,-0.26953411007451644,-0.2810399796788428,-0.2847582426716418,-0.28365712616304445,-0.2705873519523048,-0.2600549331744197,-0.26216141692999667,-0.2847422844613721,-0.3290901508003772,-0.38280548656759267,-0.4348132938359688,-0.4717246341893761,-0.48372520831205784,-0.45748991062896166,-0.3836672299221471,-0.2702841459571841,-0.11871306481725238,0.06373715319420735,0.2769867170258469,0.5197270534355655,0.7892931413083525,1.0858924373777121,1.403173573956374,1.7461793454895072,2.113266056319351,2.4909490187681587,2.86582333620953,3.2146698127013087,3.511699980447946,3.736216040729869,3.864695591609801,3.8800314316788134,3.768132461268916,3.5396906812606908,3.2036746058256087,2.7724039732917425,2.260193298270854,1.6885542482062608,1.0911107721358482,0.5171418233719045,0.012766629593351628,-0.38601308683176583,-0.660478345257297,-0.8059533900742712,-0.844636091767596,-0.815592149077064,-0.7688345929873608,-0.7346680648003117,-0.736184094775916,-0.7724092320877339,-0.8271778097327379,-0.8863508534121302,-0.9366511321816676,-0.9711846992049158,-0.9899515544818754,-0.9994945642230502,-1.0096120695339281,-1.024373414033237,-1.0493480131050412,-1.0806899380743848,-1.1113775764226783,-1.136830921802568,-1.1569223085318974,-1.1707899932561132,-1.1776041490411995,-1.18462576155979,-1.1966901685235494,-1.2135101221476268,-1.2352452045347175,-1.2532460657187396,-1.2706883895433287,-1.2826410890352016,-1.29542361546109,-1.307839103050779,-1.3192811398140274,-1.3321115408707243,-1.3414311356681259,-1.3469686346316503,-1.3527614649594866,-1.3545966591404826,-1.3584904624462457,-1.3629906777422514,-1.3691505469062875,-1.379236135796626,-1.3880291096551338,-1.3894972649999298,-1.3812468702905867,-1.368001555766882,-1.3475271719910835,-1.3260155045477664,-1.3046474609968746,-1.2849390713140134,-1.2669860847607994,-1.2508044595475034,-1.231287568387876,-1.2075098350862858,-1.1790244297551873,-1.1450334418811026,-1.1026324771949794,-1.0589548556872943,-1.0111440577198025,-0.957604262265552,-0.9044315056475003,-0.8489128921198287,-0.7929474487046102,-0.7423120475194134,-0.6991131723198136,-0.6632550738441949,-0.6273331425274979,-0.5910601305848715,-0.5482442524317407,-0.4947204151877594,-0.4340313415327624,-0.3687303451098731,-0.300652620100087,-0.23587824461609205,-0.18138095654567005,-0.13487873182027926,-0.08698814280143977,-0.041698742056532706,0.005697142443951436,0.055215468910282166,0.10264326983130534,0.14467719568122972,0.18238644654811317,0.21545185822656532,0.24270848136691126,0.2645233548053495,0.2856041505713897,0.2978281396378446,0.30775414642548815,0.3086318479903119,0.30199323251819027,0.2894341210360755,0.2740663645465245,0.261363629171984,0.2526823627853634,0.24553308458461695,0.2366284032542229,0.2194254525836769,0.19839253144844515,0.16751339457691766,0.13463948142169974,0.09713768728831998,0.06250837100345451,0.03151752666004028,0.005681184233682144,-0.019389164099738947,-0.04580000209580005,-0.07312045807722382,-0.10208460971640863,-0.13157538229448779,-0.15575207085281542,-0.17930638921063194,-0.2001318536123597,-0.21838804616069024,-0.2373942745916922,-0.25863465246042766,-0.2835932933219619,-0.31375431073136095,3
